,Raman shift [cm^-1],Intensity [a.u.]
0,1000.0,0.31315464294742124
1,1002.0080321285141,0.2086116350869304
2,1004.0160642570281,0.5170795075392374
3,1006.0240963855422,0.7476034072702791
4,1008.0321285140562,0.69047833503545
5,1010.0401606425703,0.3003523993584471
6,1012.0481927710844,0.4349297460196385
7,1014.0562248995984,-0.027340639950055257
8,1016.0642570281125,0.10019374266507419
9,1018.0722891566265,0.18939355411748007
10,1020.0803212851406,0.5256978502456473
11,1022.0883534136547,0.31635495297532257
12,1024.0963855421687,0.39751674582724894
13,1026.1044176706828,0.5091143274986188
14,1028.1124497991968,0.5589409014781584
15,1030.120481927711,0.6010718229397536
16,1032.128514056225,0.4651503469606902
17,1034.136546184739,0.5503961091002448
18,1036.144578313253,0.9853850653648488
19,1038.1526104417671,0.5539834890762834
20,1040.1606425702812,0.6016163379624164
21,1042.1686746987953,0.14945713102576635
22,1044.1767068273093,0.6253353799288883
23,1046.1847389558234,0.4790919555869065
24,1048.1927710843374,0.7030375353229456
25,1050.2008032128515,0.7834693178599418
26,1052.2088353413656,0.6411887130184094
27,1054.2168674698796,0.7523734827412001
28,1056.2248995983937,0.7676966849356422
29,1058.2329317269077,0.7546082819109392
30,1060.2409638554218,0.6515079768823636
31,1062.2489959839359,0.4547214122888395
32,1064.25702811245,0.9448808025538659
33,1066.265060240964,1.0131747029668468
34,1068.273092369478,0.8707459630967375
35,1070.2811244979919,0.6537057104827549
36,1072.289156626506,1.0780479599029165
37,1074.29718875502,1.015166697038643
38,1076.305220883534,1.0868494078426472
39,1078.313253012048,1.0077395363218913
40,1080.3212851405622,1.1501525262429269
41,1082.3293172690762,1.0231235319516774
42,1084.3373493975903,0.9323830079814162
43,1086.3453815261043,0.5521010659461797
44,1088.3534136546184,0.9591296548144096
45,1090.3614457831325,1.2583012248035244
46,1092.3694779116465,1.1175292529310554
47,1094.3775100401606,1.2610689180467687
48,1096.3855421686746,0.9437253688134932
49,1098.3935742971887,0.8493896371179913
50,1100.4016064257028,0.936395286788179
51,1102.4096385542168,1.052496241048535
52,1104.4176706827309,1.2811449619782829
53,1106.425702811245,1.1521949848784017
54,1108.433734939759,1.1199376675194561
55,1110.441767068273,1.1805472988009555
56,1112.4497991967871,1.359625708262494
57,1114.4578313253012,1.1873359042270384
58,1116.4658634538152,1.284256357500345
59,1118.4738955823293,1.4506134037418144
60,1120.4819277108434,1.471181100249877
61,1122.4899598393574,1.278840662871075
62,1124.4979919678715,1.114981670847019
63,1126.5060240963855,1.2127379736706307
64,1128.5140562248996,0.9665517012698555
65,1130.5220883534137,1.3307669468259304
66,1132.5301204819277,1.624599893801053
67,1134.5381526104418,1.6753344324048598
68,1136.5461847389558,1.2104717757131178
69,1138.55421686747,1.257881506937163
70,1140.562248995984,1.6203629969736921
71,1142.570281124498,1.3420153692400625
72,1144.578313253012,1.415450027605382
73,1146.5863453815261,1.3933740228423959
74,1148.5943775100402,1.542953327475865
75,1150.6024096385543,1.207735207760551
76,1152.6104417670683,1.7441938388069917
77,1154.6184738955824,1.9275788459322087
78,1156.6265060240964,1.7828341546789306
79,1158.6345381526105,1.610018159320634
80,1160.6425702811246,1.679412006871291
81,1162.6506024096386,1.5775000143161275
82,1164.6586345381527,1.9758229061968224
83,1166.6666666666667,1.6446908326377405
84,1168.6746987951808,1.996035698025268
85,1170.6827309236949,2.0152093178683406
86,1172.690763052209,2.3193242363037525
87,1174.698795180723,2.207393477582733
88,1176.706827309237,2.1583330425009333
89,1178.714859437751,2.14543956578768
90,1180.7228915662652,1.8831178692241781
91,1182.7309236947792,2.295458211597668
92,1184.738955823293,2.2769486556859424
93,1186.7469879518071,1.8432678261200963
94,1188.7550200803212,2.6304461576866984
95,1190.7630522088352,2.3598257800909908
96,1192.7710843373493,2.4287331229079108
97,1194.7791164658634,2.4736261653519485
98,1196.7871485943774,2.2633360235809734
99,1198.7951807228915,2.093035308089988
100,1200.8032128514055,2.1416579286724
101,1202.8112449799196,1.8656063124648272
102,1204.8192771084337,2.743972933244237
103,1206.8273092369477,2.1519936352640925
104,1208.8353413654618,2.884496250607424
105,1210.8433734939758,2.1435206040715933
106,1212.85140562249,2.729917707747698
107,1214.859437751004,2.0091265912959453
108,1216.867469879518,2.6167303980925416
109,1218.875502008032,2.39798972611534
110,1220.8835341365461,2.0077313320574177
111,1222.8915662650602,1.997651023557865
112,1224.8995983935743,2.107543852458633
113,1226.9076305220883,1.942874452471258
114,1228.9156626506024,1.9361219455771255
115,1230.9236947791164,2.0076687816655516
116,1232.9317269076305,2.1168311287339474
117,1234.9397590361446,1.9111518868818453
118,1236.9477911646586,1.7015032838991033
119,1238.9558232931727,1.6170062202666393
120,1240.9638554216867,1.4350076856575011
121,1242.9718875502008,1.6465317314781625
122,1244.9799196787149,1.5043933360976274
123,1246.987951807229,1.3929867484769527
124,1248.995983935743,1.8197592564050502
125,1251.004016064257,1.3112317379077263
126,1253.012048192771,1.0204311879727004
127,1255.0200803212851,1.4599963090810286
128,1257.0281124497992,1.773239814287593
129,1259.0361445783133,1.3189430105910704
130,1261.0441767068273,1.3534001567459766
131,1263.0522088353414,1.4566319908499386
132,1265.0602409638554,1.0796204660438509
133,1267.0682730923695,1.403475630819789
134,1269.0763052208836,1.5541526760016047
135,1271.0843373493976,1.443366219170486
136,1273.0923694779117,1.3110390830513095
137,1275.1004016064257,0.9650010199966812
138,1277.1084337349398,1.2122024001098741
139,1279.1164658634539,1.1304206880381067
140,1281.124497991968,1.2115716600201578
141,1283.132530120482,1.2074277286245088
142,1285.140562248996,1.3934782254423252
143,1287.14859437751,0.861340936526403
144,1289.1566265060242,1.4424365831615513
145,1291.1646586345382,1.3158754851391667
146,1293.1726907630523,1.1709498017671172
147,1295.1807228915663,1.4205539043565705
148,1297.1887550200804,1.2290728354553695
149,1299.1967871485945,1.2293687093072012
150,1301.2048192771085,1.0216990866124118
151,1303.2128514056226,1.3806153786593804
152,1305.2208835341366,1.1815538767886284
153,1307.2289156626507,0.9845234202347463
154,1309.2369477911648,1.2933309244677194
155,1311.2449799196788,0.7872847716511824
156,1313.2530120481929,1.476196086339832
157,1315.261044176707,1.1977424750349066
158,1317.269076305221,1.0918459885515517
159,1319.277108433735,1.0306070916544474
160,1321.2851405622491,1.0364391423274824
161,1323.2931726907632,1.1784253435119998
162,1325.3012048192772,1.3590065040256478
163,1327.3092369477913,0.8530499919902672
164,1329.3172690763054,1.315199329149343
165,1331.3253012048194,1.2484564961772364
166,1333.3333333333335,0.9699517335317329
167,1335.3413654618475,1.3101593319011873
168,1337.3493975903616,0.8989016151654039
169,1339.3574297188754,1.1835770523127005
170,1341.3654618473895,1.4630211060206966
171,1343.3734939759036,1.3311729982215794
172,1345.3815261044176,1.3932028906399863
173,1347.3895582329317,1.176449749237274
174,1349.3975903614457,1.4292401013983396
175,1351.4056224899598,1.3311018049150627
176,1353.4136546184739,1.5771437983914467
177,1355.421686746988,1.7868183922970724
178,1357.429718875502,1.694228903607528
179,1359.437751004016,1.775270899028469
180,1361.44578313253,1.8182351521116418
181,1363.4538152610442,1.9798321706910817
182,1365.4618473895582,1.8220839152924304
183,1367.4698795180723,1.4599413988258332
184,1369.4779116465863,1.8642212913748115
185,1371.4859437751004,2.0774459283550857
186,1373.4939759036145,2.276886244495219
187,1375.5020080321285,2.4630273627278294
188,1377.5100401606426,2.1856425161352435
189,1379.5180722891566,1.8636225030585614
190,1381.5261044176707,2.0340440566393387
191,1383.5341365461848,2.475086015209392
192,1385.5421686746988,2.448674056994038
193,1387.5502008032129,2.2412127822551127
194,1389.558232931727,2.658330481738463
195,1391.566265060241,2.680393187348545
196,1393.574297188755,2.839507793360938
197,1395.5823293172691,2.6645245892404112
198,1397.5903614457832,2.6692237772190452
199,1399.5983935742972,2.74255994129151
200,1401.6064257028113,2.93454391695664
201,1403.6144578313254,2.9765800746142386
202,1405.6224899598394,2.6321736944907745
203,1407.6305220883535,2.72412189610976
204,1409.6385542168675,2.416299220821977
205,1411.6465863453816,2.479021364760534
206,1413.6546184738957,2.5188516429648953
207,1415.6626506024097,1.9129270735595723
208,1417.6706827309238,2.546209545841484
209,1419.6787148594378,2.4027964894888
210,1421.686746987952,1.9111232058647518
211,1423.694779116466,1.7753568993648101
212,1425.70281124498,2.2583937352268144
213,1427.710843373494,1.7333326421717894
214,1429.7188755020081,1.5871511166018974
215,1431.7269076305222,1.9018506433806754
216,1433.734939759036,1.5286685195727214
217,1435.74297188755,1.5511416916353626
218,1437.7510040160641,1.4956215964384436
219,1439.7590361445782,1.5048900422702212
220,1441.7670682730923,1.395112919297236
221,1443.7751004016063,1.371869152786662
222,1445.7831325301204,1.3943779105439578
223,1447.7911646586344,1.0779949743122188
224,1449.7991967871485,1.4395703481455704
225,1451.8072289156626,1.0931584402151229
226,1453.8152610441766,0.7592658192776287
227,1455.8232931726907,0.9989198994396276
228,1457.8313253012047,0.9307869966571333
229,1459.8393574297188,0.8167517972529467
230,1461.8473895582329,0.535419090068176
231,1463.855421686747,1.033987625245
232,1465.863453815261,0.9506213247146648
233,1467.871485943775,0.7917850503065218
234,1469.879518072289,0.5344985695972578
235,1471.8875502008032,1.1045721541039235
236,1473.8955823293172,1.1001109327806928
237,1475.9036144578313,0.7583228226033082
238,1477.9116465863453,0.5226789664003497
239,1479.9196787148594,0.2365049733262239
240,1481.9277108433735,0.7243986488873142
241,1483.9357429718875,0.45907359411797555
242,1485.9437751004016,0.8759488110814039
243,1487.9518072289156,0.7744557971791379
244,1489.9598393574297,0.4953957341474653
245,1491.9678714859438,0.6678485473623512
246,1493.9759036144578,0.45588490228906325
247,1495.9839357429719,0.4300550271943031
248,1497.991967871486,0.4298760604534271
249,1500.0,0.2677204955204731
