,Raman shift [cm^-1],Intensity [a.u.]
0,1000.0,0.5150393884103271
1,1002.0080321285141,0.31135458894806517
2,1004.0160642570281,0.3736509990612867
3,1006.0240963855422,0.2801962138537243
4,1008.0321285140562,0.3475987558901203
5,1010.0401606425703,0.3442440297039886
6,1012.0481927710844,1.326185096940224
7,1014.0562248995984,0.44542744327742684
8,1016.0642570281125,0.37472125458526034
9,1018.0722891566265,0.2932988463398003
10,1020.0803212851406,0.3589860023237723
11,1022.0883534136547,0.5475183440272275
12,1024.0963855421687,0.34359576139198983
13,1026.1044176706828,0.6061720298903439
14,1028.1124497991968,0.357468591024817
15,1030.120481927711,0.5336969394430799
16,1032.128514056225,0.573026154171289
17,1034.136546184739,0.20304353097215988
18,1036.144578313253,0.4350762369060487
19,1038.1526104417671,0.5433616968864552
20,1040.1606425702812,0.6933726841504608
21,1042.1686746987953,0.4165545687698489
22,1044.1767068273093,0.9255140215426545
23,1046.1847389558234,-0.009651323110247814
24,1048.1927710843374,0.4280709404978697
25,1050.2008032128515,0.6371616624689149
26,1052.2088353413656,0.612062944862398
27,1054.2168674698796,0.7876973237535857
28,1056.2248995983937,0.5982741304292992
29,1058.2329317269077,0.5277390592197254
30,1060.2409638554218,0.6870710884261649
31,1062.2489959839359,0.6199020446207653
32,1064.25702811245,0.9544345659750438
33,1066.265060240964,0.4783489343230396
34,1068.273092369478,0.7918595840403699
35,1070.2811244979919,0.628711512262673
36,1072.289156626506,0.5508480918389618
37,1074.29718875502,0.9566593936821216
38,1076.305220883534,0.8340903661805246
39,1078.313253012048,1.2121961571074371
40,1080.3212851405622,0.6211156265991418
41,1082.3293172690762,1.1194694587841834
42,1084.3373493975903,1.2435597027099932
43,1086.3453815261043,0.7855885388541548
44,1088.3534136546184,0.805155312491576
45,1090.3614457831325,1.3205517796636304
46,1092.3694779116465,1.0301026455297666
47,1094.3775100401606,1.2320366350761154
48,1096.3855421686746,0.8745410974801416
49,1098.3935742971887,1.2495867535688334
50,1100.4016064257028,0.9675799584243371
51,1102.4096385542168,0.6728731288202863
52,1104.4176706827309,1.0184808842991575
53,1106.425702811245,1.2615785446898706
54,1108.433734939759,1.1900957786256263
55,1110.441767068273,1.2374751116737195
56,1112.4497991967871,0.837005794668019
57,1114.4578313253012,1.0675068976300437
58,1116.4658634538152,1.502235795257656
59,1118.4738955823293,1.4644302726875151
60,1120.4819277108434,1.3168391634920449
61,1122.4899598393574,1.516334578682247
62,1124.4979919678715,1.6195798592251829
63,1126.5060240963855,1.6428447579112535
64,1128.5140562248996,1.7039081361270012
65,1130.5220883534137,1.1956129103199817
66,1132.5301204819277,0.9107076504945706
67,1134.5381526104418,1.350665608236917
68,1136.5461847389558,0.7887965449765126
69,1138.55421686747,1.5590535632682494
70,1140.562248995984,1.3704423362936193
71,1142.570281124498,1.3456893318879684
72,1144.578313253012,1.4257532219917197
73,1146.5863453815261,1.6319885008885588
74,1148.5943775100402,1.272604323670973
75,1150.6024096385543,1.5302547821980517
76,1152.6104417670683,1.5840537783219197
77,1154.6184738955824,1.7513108827764823
78,1156.6265060240964,1.8916670095886359
79,1158.6345381526105,2.018830368334612
80,1160.6425702811246,1.6740547016894158
81,1162.6506024096386,1.9526023955688911
82,1164.6586345381527,2.194031242434773
83,1166.6666666666667,2.0172891078952047
84,1168.6746987951808,1.9921651019950393
85,1170.6827309236949,1.5945415973041284
86,1172.690763052209,2.1561404561466935
87,1174.698795180723,2.186239089987996
88,1176.706827309237,2.29560805752098
89,1178.714859437751,2.212269664337958
90,1180.7228915662652,2.3402985543691344
91,1182.7309236947792,2.2119894833220934
92,1184.738955823293,1.8684676347452147
93,1186.7469879518071,2.0485152762354075
94,1188.7550200803212,2.1460964906017224
95,1190.7630522088352,2.2233061251806543
96,1192.7710843373493,2.3388036862454347
97,1194.7791164658634,2.2556849192677086
98,1196.7871485943774,2.502481858353987
99,1198.7951807228915,2.3702802064631503
100,1200.8032128514055,1.947014262521901
101,1202.8112449799196,2.5075160211037835
102,1204.8192771084337,2.1157795059599356
103,1206.8273092369477,2.269013253280692
104,1208.8353413654618,2.3143639198263344
105,1210.8433734939758,2.100876931892423
106,1212.85140562249,2.0853275200102
107,1214.859437751004,2.044597080707512
108,1216.867469879518,2.3157794639142897
109,1218.875502008032,2.3151989417994705
110,1220.8835341365461,2.1731485967797632
111,1222.8915662650602,1.9768808748553268
112,1224.8995983935743,1.7876406660278612
113,1226.9076305220883,2.448396690729582
114,1228.9156626506024,2.183429764703395
115,1230.9236947791164,2.4850316624436664
116,1232.9317269076305,1.9295413991625099
117,1234.9397590361446,1.6498320983694539
118,1236.9477911646586,1.7678408689921985
119,1238.9558232931727,1.7293392070225724
120,1240.9638554216867,1.7330522472956842
121,1242.9718875502008,1.4736969674511962
122,1244.9799196787149,1.517053717663172
123,1246.987951807229,2.067209451166147
124,1248.995983935743,1.3926308883047498
125,1251.004016064257,1.6652256819283404
126,1253.012048192771,1.607187041548527
127,1255.0200803212851,1.378501801000769
128,1257.0281124497992,1.332757539533915
129,1259.0361445783133,1.508316560468592
130,1261.0441767068273,1.379775262333023
131,1263.0522088353414,1.60381817419947
132,1265.0602409638554,1.1044997462528299
133,1267.0682730923695,1.4318353656335685
134,1269.0763052208836,1.2959660948624458
135,1271.0843373493976,1.3515028578433832
136,1273.0923694779117,1.0658328663039365
137,1275.1004016064257,1.5987723358996313
138,1277.1084337349398,1.3340651649328423
139,1279.1164658634539,1.4153465171738149
140,1281.124497991968,1.4124236495598144
141,1283.132530120482,0.9189152667916629
142,1285.140562248996,1.0050267710026106
143,1287.14859437751,1.070980706349785
144,1289.1566265060242,1.0574612912084709
145,1291.1646586345382,0.96838444087447
146,1293.1726907630523,1.277303626642132
147,1295.1807228915663,0.9084064739595729
148,1297.1887550200804,1.0828485131642378
149,1299.1967871485945,1.416467582918
150,1301.2048192771085,0.9871103591614405
151,1303.2128514056226,0.673686014103124
152,1305.2208835341366,1.0468740460773773
153,1307.2289156626507,1.0673730346214185
154,1309.2369477911648,0.8901559234976284
155,1311.2449799196788,0.9845474202681554
156,1313.2530120481929,0.9163867759225444
157,1315.261044176707,1.0826510247043564
158,1317.269076305221,1.219290839572666
159,1319.277108433735,1.0242649015884684
160,1321.2851405622491,1.1481333722920393
161,1323.2931726907632,0.8634078900999191
162,1325.3012048192772,1.4323374620112774
163,1327.3092369477913,1.0959221425170673
164,1329.3172690763054,1.2623567734183234
165,1331.3253012048194,0.633813021745286
166,1333.3333333333335,1.322574649285478
167,1335.3413654618475,1.3498484009557707
168,1337.3493975903616,1.0135868825409096
169,1339.3574297188754,1.2205908617670238
170,1341.3654618473895,1.1091790880957144
171,1343.3734939759036,1.291832827189569
172,1345.3815261044176,1.1846654472703992
173,1347.3895582329317,0.9353522033470385
174,1349.3975903614457,1.5985798471740553
175,1351.4056224899598,1.8352318988682659
176,1353.4136546184739,1.3138948095746474
177,1355.421686746988,1.3826979014304177
178,1357.429718875502,1.7539433434451404
179,1359.437751004016,1.3265196143114237
180,1361.44578313253,1.2454651741214273
181,1363.4538152610442,1.1917372832947735
182,1365.4618473895582,1.5935725833143444
183,1367.4698795180723,1.9069323121458452
184,1369.4779116465863,1.479219926232957
185,1371.4859437751004,1.7083328120226031
186,1373.4939759036145,1.9199002797259044
187,1375.5020080321285,2.1825580724431
188,1377.5100401606426,1.8788857143899331
189,1379.5180722891566,2.2166586511050976
190,1381.5261044176707,2.0061047405427552
191,1383.5341365461848,2.5207763842131925
192,1385.5421686746988,2.3089603374698817
193,1387.5502008032129,2.187362189288598
194,1389.558232931727,2.197170183393997
195,1391.566265060241,2.4857650248820957
196,1393.574297188755,2.6236314137249463
197,1395.5823293172691,2.6180881135231533
198,1397.5903614457832,2.4577667784304573
199,1399.5983935742972,2.2084134839349683
200,1401.6064257028113,2.956444829610511
201,1403.6144578313254,2.553160396064438
202,1405.6224899598394,2.3124035140475465
203,1407.6305220883535,2.4133653798152155
204,1409.6385542168675,2.5689919290055467
205,1411.6465863453816,2.5880174182711277
206,1413.6546184738957,2.3354728409333156
207,1415.6626506024097,1.9033334813956326
208,1417.6706827309238,2.048942823269535
209,1419.6787148594378,2.172818412171409
210,1421.686746987952,1.8827583811441984
211,1423.694779116466,1.905197265956105
212,1425.70281124498,1.8798097724106668
213,1427.710843373494,1.609874812464573
214,1429.7188755020081,2.1583966134662065
215,1431.7269076305222,1.5664943682811827
216,1433.734939759036,1.6371851447289494
217,1435.74297188755,1.5853851696037928
218,1437.7510040160641,1.4705559516847742
219,1439.7590361445782,1.3372398436908188
220,1441.7670682730923,1.3323360296423232
221,1443.7751004016063,1.0896312237860268
222,1445.7831325301204,1.154667434463223
223,1447.7911646586344,0.9920255662789884
224,1449.7991967871485,0.8984835851480248
225,1451.8072289156626,1.0243312146443408
226,1453.8152610441766,0.8921843160840073
227,1455.8232931726907,0.8772430148120964
228,1457.8313253012047,1.1790615128833606
229,1459.8393574297188,1.2584365907273483
230,1461.8473895582329,0.6454376625310886
231,1463.855421686747,0.8214132686635706
232,1465.863453815261,0.5591317114364931
233,1467.871485943775,0.8026854551016458
234,1469.879518072289,1.0352060735204034
235,1471.8875502008032,0.700389773226246
236,1473.8955823293172,0.8430298902784644
237,1475.9036144578313,0.8021655912170582
238,1477.9116465863453,0.518075180978171
239,1479.9196787148594,0.6782550039230097
240,1481.9277108433735,0.873950113772401
241,1483.9357429718875,0.32695185648740666
242,1485.9437751004016,0.3992308135994449
243,1487.9518072289156,0.6713478144985957
244,1489.9598393574297,0.3498099107035008
245,1491.9678714859438,0.42884396340287945
246,1493.9759036144578,0.5128515937556288
247,1495.9839357429719,0.3391741258634936
248,1497.991967871486,0.4393242839991582
249,1500.0,0.44230412909314715
