,Raman shift [cm^-1],Intensity [a.u.]
0,1000.0,0.27045408716572855
1,1002.0080321285141,0.616810234084225
2,1004.0160642570281,0.22340054634394388
3,1006.0240963855422,0.2600112561101687
4,1008.0321285140562,0.5066112387654165
5,1010.0401606425703,0.36319635869004896
6,1012.0481927710844,0.5752161301415555
7,1014.0562248995984,0.47649312788145226
8,1016.0642570281125,0.12047641887821492
9,1018.0722891566265,0.17194108165510227
10,1020.0803212851406,0.44944889768991264
11,1022.0883534136547,0.419612231626793
12,1024.0963855421687,0.5655510459498394
13,1026.1044176706828,0.6208194466600307
14,1028.1124497991968,0.4236505848212996
15,1030.120481927711,0.1888486340379209
16,1032.128514056225,0.5355060603214947
17,1034.136546184739,0.8501715396558995
18,1036.144578313253,0.21818238024686168
19,1038.1526104417671,0.6290714393081056
20,1040.1606425702812,0.4724115274562387
21,1042.1686746987953,0.9233943468456223
22,1044.1767068273093,0.8308402420574508
23,1046.1847389558234,0.6412017931330043
24,1048.1927710843374,1.013184630312294
25,1050.2008032128515,1.1961775250490594
26,1052.2088353413656,0.5202178196381471
27,1054.2168674698796,0.7328208744945583
28,1056.2248995983937,0.637013545966667
29,1058.2329317269077,0.7488712964764025
30,1060.2409638554218,0.6654298421152649
31,1062.2489959839359,0.8886262885039472
32,1064.25702811245,0.6525396549275191
33,1066.265060240964,0.8134580837821751
34,1068.273092369478,0.8754126893519064
35,1070.2811244979919,0.9593354618407591
36,1072.289156626506,1.2793546999475855
37,1074.29718875502,0.8210277534996927
38,1076.305220883534,0.9422542857300796
39,1078.313253012048,1.0970393022636482
40,1080.3212851405622,0.737546598918575
41,1082.3293172690762,1.166455166885432
42,1084.3373493975903,0.5573847723989097
43,1086.3453815261043,0.9443319195276858
44,1088.3534136546184,1.121561847424611
45,1090.3614457831325,1.106277733882308
46,1092.3694779116465,1.1389489121115892
47,1094.3775100401606,0.7162671579323967
48,1096.3855421686746,1.1605154105339475
49,1098.3935742971887,1.0222186594612743
50,1100.4016064257028,1.2354911236750425
51,1102.4096385542168,1.2909170313083427
52,1104.4176706827309,1.3924935078748624
53,1106.425702811245,0.8118738861028871
54,1108.433734939759,1.3193407239665154
55,1110.441767068273,1.1472785352651027
56,1112.4497991967871,1.3126540845167158
57,1114.4578313253012,1.52584298585683
58,1116.4658634538152,1.3565528397274789
59,1118.4738955823293,1.1966355185155988
60,1120.4819277108434,1.4217401512947099
61,1122.4899598393574,1.511140495247823
62,1124.4979919678715,1.4361135043143298
63,1126.5060240963855,1.0387115104558924
64,1128.5140562248996,1.1524079922178088
65,1130.5220883534137,1.9507662222010997
66,1132.5301204819277,1.548573727999606
67,1134.5381526104418,1.5946663199708837
68,1136.5461847389558,1.6599414510742643
69,1138.55421686747,1.2972556803123196
70,1140.562248995984,1.8246830195444241
71,1142.570281124498,1.5498162294812985
72,1144.578313253012,1.6242436905188797
73,1146.5863453815261,1.5228159253925817
74,1148.5943775100402,1.6346785952505165
75,1150.6024096385543,1.4084328595729378
76,1152.6104417670683,1.6046211498292156
77,1154.6184738955824,1.4794501754266802
78,1156.6265060240964,1.747959878770836
79,1158.6345381526105,2.423546547620598
80,1160.6425702811246,1.5032496961142687
81,1162.6506024096386,2.0240322860202764
82,1164.6586345381527,1.7927939127321344
83,1166.6666666666667,1.7138090316024093
84,1168.6746987951808,1.4759023040936103
85,1170.6827309236949,2.3617746299173374
86,1172.690763052209,2.428720218210464
87,1174.698795180723,1.8738916224887043
88,1176.706827309237,2.1385166360444465
89,1178.714859437751,2.54309777087125
90,1180.7228915662652,1.999425958430163
91,1182.7309236947792,2.369838770636757
92,1184.738955823293,2.51062401044039
93,1186.7469879518071,2.6334728813791424
94,1188.7550200803212,2.1211972566985957
95,1190.7630522088352,2.506743105422565
96,1192.7710843373493,2.7464825041004373
97,1194.7791164658634,2.4200039585261246
98,1196.7871485943774,2.6911957360203917
99,1198.7951807228915,2.3651661183124832
100,1200.8032128514055,2.419114426643436
101,1202.8112449799196,2.4725710209917584
102,1204.8192771084337,2.539941235571935
103,1206.8273092369477,2.298581884237504
104,1208.8353413654618,2.440683743445756
105,1210.8433734939758,2.3195943848614387
106,1212.85140562249,2.190064422310413
107,1214.859437751004,2.2236135498095937
108,1216.867469879518,2.538427520263071
109,1218.875502008032,2.9658092830231344
110,1220.8835341365461,2.1624083326654255
111,1222.8915662650602,2.3629280451621306
112,1224.8995983935743,2.4767855441592115
113,1226.9076305220883,2.1928766310517336
114,1228.9156626506024,2.0951614175969975
115,1230.9236947791164,1.8545894736796482
116,1232.9317269076305,1.9304345767239801
117,1234.9397590361446,1.8425603778391986
118,1236.9477911646586,2.0456470669758136
119,1238.9558232931727,1.9870309783219648
120,1240.9638554216867,1.967943367591282
121,1242.9718875502008,2.1619475013136604
122,1244.9799196787149,1.9963529926057382
123,1246.987951807229,1.7117582277148313
124,1248.995983935743,1.5002238829371703
125,1251.004016064257,1.597294209928768
126,1253.012048192771,1.6284195088530091
127,1255.0200803212851,1.5676450231384103
128,1257.0281124497992,1.8945254663367006
129,1259.0361445783133,1.369100416238432
130,1261.0441767068273,1.4190200179561079
131,1263.0522088353414,1.424186593008168
132,1265.0602409638554,1.3645723431854342
133,1267.0682730923695,1.5623257999661482
134,1269.0763052208836,1.6521719690742247
135,1271.0843373493976,1.6344603083815747
136,1273.0923694779117,1.3378447797860502
137,1275.1004016064257,1.2355236980778834
138,1277.1084337349398,1.531632693219455
139,1279.1164658634539,1.2351386557757658
140,1281.124497991968,1.0345683451355727
141,1283.132530120482,1.2278351120255984
142,1285.140562248996,1.4274559298691742
143,1287.14859437751,1.0267519894453485
144,1289.1566265060242,1.1976329563624677
145,1291.1646586345382,1.3771241434108716
146,1293.1726907630523,1.473732403303448
147,1295.1807228915663,1.0906369745203162
148,1297.1887550200804,0.9955301869112569
149,1299.1967871485945,1.0352935030562915
150,1301.2048192771085,1.3220145553105282
151,1303.2128514056226,1.3014731651641358
152,1305.2208835341366,1.1494626675381472
153,1307.2289156626507,0.9240124795783283
154,1309.2369477911648,1.2427144138257094
155,1311.2449799196788,1.13108484365948
156,1313.2530120481929,1.2747425423253045
157,1315.261044176707,1.3618637526601114
158,1317.269076305221,1.407972223083244
159,1319.277108433735,1.1320849227055994
160,1321.2851405622491,1.1650096471062519
161,1323.2931726907632,1.0852423075145325
162,1325.3012048192772,1.3833834966275236
163,1327.3092369477913,1.2686819299600762
164,1329.3172690763054,1.2037428518544564
165,1331.3253012048194,1.4017091217951345
166,1333.3333333333335,1.6438940846952685
167,1335.3413654618475,1.046929964389086
168,1337.3493975903616,1.1255049301529865
169,1339.3574297188754,1.3751344950694262
170,1341.3654618473895,1.3196944697113906
171,1343.3734939759036,1.2435136939839655
172,1345.3815261044176,1.2708732787231845
173,1347.3895582329317,1.328121311265619
174,1349.3975903614457,1.5219114125637454
175,1351.4056224899598,1.4294886323351605
176,1353.4136546184739,1.2565743755418763
177,1355.421686746988,1.4606270273016344
178,1357.429718875502,1.7098642849750987
179,1359.437751004016,1.1286682953094893
180,1361.44578313253,1.7297688587635134
181,1363.4538152610442,1.7847028540998031
182,1365.4618473895582,1.767453442971422
183,1367.4698795180723,1.8105796311764335
184,1369.4779116465863,1.9136230898926478
185,1371.4859437751004,2.268596817187562
186,1373.4939759036145,2.233591117708858
187,1375.5020080321285,2.2101802449385652
188,1377.5100401606426,2.150249504263007
189,1379.5180722891566,2.300375324648883
190,1381.5261044176707,2.063838275984481
191,1383.5341365461848,2.683984199651816
192,1385.5421686746988,2.3500614385638756
193,1387.5502008032129,2.8588567284713133
194,1389.558232931727,2.462054436759018
195,1391.566265060241,2.552471513219308
196,1393.574297188755,2.9769863579651927
197,1395.5823293172691,2.5314972315508495
198,1397.5903614457832,2.9021796595365363
199,1399.5983935742972,2.9345512475050333
200,1401.6064257028113,2.8898625979434
201,1403.6144578313254,2.5309322911450174
202,1405.6224899598394,2.842459476751542
203,1407.6305220883535,2.730681638498396
204,1409.6385542168675,2.4739751873068845
205,1411.6465863453816,2.9239024535691143
206,1413.6546184738957,2.3363811842195803
207,1415.6626506024097,2.301124624435852
208,1417.6706827309238,1.9815743172953073
209,1419.6787148594378,2.155992722167101
210,1421.686746987952,2.2664809325242152
211,1423.694779116466,2.2298471580597043
212,1425.70281124498,1.7773551380156387
213,1427.710843373494,2.1585035362169953
214,1429.7188755020081,2.1986498201297007
215,1431.7269076305222,1.6570732380369289
216,1433.734939759036,1.5372397387528793
217,1435.74297188755,1.56789872276958
218,1437.7510040160641,1.7955621468014593
219,1439.7590361445782,1.2425424303152586
220,1441.7670682730923,1.3264625961948784
221,1443.7751004016063,1.2621260020328546
222,1445.7831325301204,1.4085506840320765
223,1447.7911646586344,1.1827788940265487
224,1449.7991967871485,1.1955313086210613
225,1451.8072289156626,1.179962768252203
226,1453.8152610441766,0.9955684074116293
227,1455.8232931726907,0.8929490698047198
228,1457.8313253012047,1.0293455947987635
229,1459.8393574297188,1.2175437027390974
230,1461.8473895582329,0.8968658527433249
231,1463.855421686747,0.9258951389423664
232,1465.863453815261,0.8045397537370554
233,1467.871485943775,0.6224770904563851
234,1469.879518072289,1.3456742839881972
235,1471.8875502008032,0.5950167652470189
236,1473.8955823293172,1.085036028749961
237,1475.9036144578313,1.0670646708796887
238,1477.9116465863453,0.7179372337099189
239,1479.9196787148594,0.8365880916709912
240,1481.9277108433735,0.6592467168826603
241,1483.9357429718875,0.4133478818252233
242,1485.9437751004016,0.6059763010818557
243,1487.9518072289156,0.8147339067566852
244,1489.9598393574297,0.6009992557563165
245,1491.9678714859438,0.3212351047653786
246,1493.9759036144578,0.5996597933504189
247,1495.9839357429719,0.18400611259984914
248,1497.991967871486,0.45296770516483886
249,1500.0,0.36611978908088577
