,Raman shift [cm^-1],Intensity [a.u.]
0,1000.0,0.5179225461421563
1,1002.0080321285141,0.395017905875246
2,1004.0160642570281,0.27343202730234445
3,1006.0240963855422,0.1727465776773559
4,1008.0321285140562,0.41857200662780536
5,1010.0401606425703,0.5290692532538849
6,1012.0481927710844,0.3526370717726111
7,1014.0562248995984,0.33243633718176896
8,1016.0642570281125,0.07276336656918887
9,1018.0722891566265,0.1703807777715439
10,1020.0803212851406,0.19492123900030592
11,1022.0883534136547,0.5381159409235582
12,1024.0963855421687,0.30503952098497394
13,1026.1044176706828,0.4929461933058604
14,1028.1124497991968,0.11186246216619518
15,1030.120481927711,0.4182963549724771
16,1032.128514056225,0.6153286210657595
17,1034.136546184739,0.7741194041353652
18,1036.144578313253,0.3828843636533936
19,1038.1526104417671,0.5729319362623915
20,1040.1606425702812,0.3175103707959761
21,1042.1686746987953,0.09580560342256567
22,1044.1767068273093,0.63605377271896
23,1046.1847389558234,0.4505809392755961
24,1048.1927710843374,0.4074724608262836
25,1050.2008032128515,0.6142239737515537
26,1052.2088353413656,0.9671842364994568
27,1054.2168674698796,0.6792799371006057
28,1056.2248995983937,0.8774029747980364
29,1058.2329317269077,0.5465743494397011
30,1060.2409638554218,0.6593222525327714
31,1062.2489959839359,0.746545351333987
32,1064.25702811245,0.39792963054188735
33,1066.265060240964,1.1413410954250178
34,1068.273092369478,0.6349699040424188
35,1070.2811244979919,0.8225587500455641
36,1072.289156626506,0.8366961617198303
37,1074.29718875502,0.7860100995294357
38,1076.305220883534,0.3724645510777719
39,1078.313253012048,0.8153400892554061
40,1080.3212851405622,0.9819172825331733
41,1082.3293172690762,1.0637937666449047
42,1084.3373493975903,0.7540184574545473
43,1086.3453815261043,1.0253523343174378
44,1088.3534136546184,0.9908188332564455
45,1090.3614457831325,0.9120946215816739
46,1092.3694779116465,0.6895211916595543
47,1094.3775100401606,1.5579923924512167
48,1096.3855421686746,1.0826813086873899
49,1098.3935742971887,0.8218148177894329
50,1100.4016064257028,0.8641663938000935
51,1102.4096385542168,1.8119024816586518
52,1104.4176706827309,1.0072666090838345
53,1106.425702811245,1.1544878574276862
54,1108.433734939759,0.8697404877294234
55,1110.441767068273,1.291101298761646
56,1112.4497991967871,1.3314647257439105
57,1114.4578313253012,1.3717965867037267
58,1116.4658634538152,1.4695514533269134
59,1118.4738955823293,1.1259570561011816
60,1120.4819277108434,1.4520881872711588
61,1122.4899598393574,1.2696260897451939
62,1124.4979919678715,1.257946137963709
63,1126.5060240963855,0.9431526231002686
64,1128.5140562248996,1.3640495462899827
65,1130.5220883534137,0.9994882790531049
66,1132.5301204819277,1.3244346662042197
67,1134.5381526104418,1.2328400734091178
68,1136.5461847389558,1.0830484878115778
69,1138.55421686747,1.4996026599057068
70,1140.562248995984,1.6390962740840442
71,1142.570281124498,1.7396050716045008
72,1144.578313253012,1.6060524192361847
73,1146.5863453815261,1.4813815051682508
74,1148.5943775100402,1.5515269015291964
75,1150.6024096385543,1.7482244555781867
76,1152.6104417670683,1.6533590453364604
77,1154.6184738955824,1.42944433003614
78,1156.6265060240964,1.778563487033266
79,1158.6345381526105,1.883961160806757
80,1160.6425702811246,1.7780430943842536
81,1162.6506024096386,2.1215840940879547
82,1164.6586345381527,1.5723513730405887
83,1166.6666666666667,2.055176496802696
84,1168.6746987951808,1.8338757256822218
85,1170.6827309236949,1.9398675663614777
86,1172.690763052209,1.8455998075574733
87,1174.698795180723,2.0717749855907095
88,1176.706827309237,2.1049234716072642
89,1178.714859437751,2.068598972192485
90,1180.7228915662652,2.187521296191901
91,1182.7309236947792,2.0798160972399122
92,1184.738955823293,2.1205413651577203
93,1186.7469879518071,2.02500216005129
94,1188.7550200803212,2.1021237241526314
95,1190.7630522088352,2.2204698453998004
96,1192.7710843373493,2.1295917215419657
97,1194.7791164658634,2.2466129497880547
98,1196.7871485943774,2.3834054186306664
99,1198.7951807228915,2.5617901389348994
100,1200.8032128514055,1.9720026870890819
101,1202.8112449799196,2.6474687159336154
102,1204.8192771084337,2.4487827274936516
103,1206.8273092369477,2.1734827885277084
104,1208.8353413654618,2.5300364606902916
105,1210.8433734939758,2.3874985389890813
106,1212.85140562249,2.347348210728795
107,1214.859437751004,2.461154967436418
108,1216.867469879518,1.9567103401601689
109,1218.875502008032,2.089828030733449
110,1220.8835341365461,1.8141629293090726
111,1222.8915662650602,2.3009406974168582
112,1224.8995983935743,2.2467793317318763
113,1226.9076305220883,1.5564073832485947
114,1228.9156626506024,2.3461169742792345
115,1230.9236947791164,2.0290846839465293
116,1232.9317269076305,2.186009339201569
117,1234.9397590361446,1.6106210874254696
118,1236.9477911646586,1.9880292453421597
119,1238.9558232931727,2.092825491043108
120,1240.9638554216867,2.0178961982008383
121,1242.9718875502008,1.413158100598298
122,1244.9799196787149,1.7129634327934085
123,1246.987951807229,1.4249390578625394
124,1248.995983935743,1.6662285554944647
125,1251.004016064257,1.099644129249289
126,1253.012048192771,1.3884736883712947
127,1255.0200803212851,1.4911840949908846
128,1257.0281124497992,1.6473507918748076
129,1259.0361445783133,1.5452952283634327
130,1261.0441767068273,1.6041632534462862
131,1263.0522088353414,1.307457970789271
132,1265.0602409638554,1.3741199696561286
133,1267.0682730923695,1.2447248495677896
134,1269.0763052208836,1.3777742396990573
135,1271.0843373493976,1.4985480981630206
136,1273.0923694779117,1.2794228647003876
137,1275.1004016064257,1.061947902158413
138,1277.1084337349398,1.4113004904327788
139,1279.1164658634539,1.5558840066576995
140,1281.124497991968,0.7697506838641556
141,1283.132530120482,1.1839880007586014
142,1285.140562248996,0.8733524980604698
143,1287.14859437751,1.0489697089676866
144,1289.1566265060242,1.1623558219010215
145,1291.1646586345382,0.7687821146265763
146,1293.1726907630523,0.9022740776256603
147,1295.1807228915663,1.2249888527612942
148,1297.1887550200804,1.0536988211121312
149,1299.1967871485945,1.5367860367721027
150,1301.2048192771085,0.8991719391942223
151,1303.2128514056226,1.13740084700745
152,1305.2208835341366,1.0759467501731663
153,1307.2289156626507,1.2742587197618491
154,1309.2369477911648,0.6712877138049719
155,1311.2449799196788,1.1496169562502592
156,1313.2530120481929,0.9370363797641683
157,1315.261044176707,1.4259185008447373
158,1317.269076305221,0.9634237915805965
159,1319.277108433735,0.7937774625318036
160,1321.2851405622491,1.492900935946371
161,1323.2931726907632,1.3972583096234756
162,1325.3012048192772,0.9276525212933303
163,1327.3092369477913,1.4673379749083628
164,1329.3172690763054,1.279997772712622
165,1331.3253012048194,0.8644991885856474
166,1333.3333333333335,1.2354303117005685
167,1335.3413654618475,1.4976226160124353
168,1337.3493975903616,1.2178725289869594
169,1339.3574297188754,0.778353299233869
170,1341.3654618473895,1.4810986224653822
171,1343.3734939759036,1.1422772919133772
172,1345.3815261044176,1.2714463563170324
173,1347.3895582329317,1.1898552297158838
174,1349.3975903614457,1.5630581677041024
175,1351.4056224899598,1.0798196101073148
176,1353.4136546184739,1.443184243862415
177,1355.421686746988,1.69131917420448
178,1357.429718875502,1.7176954388714434
179,1359.437751004016,1.4604424277895611
180,1361.44578313253,1.9117270349652775
181,1363.4538152610442,1.6516894578013892
182,1365.4618473895582,1.8475353603252742
183,1367.4698795180723,1.913170870750219
184,1369.4779116465863,1.8607129140555652
185,1371.4859437751004,2.1298464098673127
186,1373.4939759036145,2.386431244572364
187,1375.5020080321285,2.4015907179929687
188,1377.5100401606426,2.2439100542181385
189,1379.5180722891566,2.37211802771795
190,1381.5261044176707,2.348370188052823
191,1383.5341365461848,2.78788416519472
192,1385.5421686746988,2.471181659037735
193,1387.5502008032129,2.3520968118145578
194,1389.558232931727,3.010390292325132
195,1391.566265060241,2.5986656708580513
196,1393.574297188755,2.34781111438436
197,1395.5823293172691,2.425100833120767
198,1397.5903614457832,2.7651214011973986
199,1399.5983935742972,2.324678207684347
200,1401.6064257028113,2.668114312621439
201,1403.6144578313254,2.8128472902355632
202,1405.6224899598394,2.653688478766752
203,1407.6305220883535,2.755372953114255
204,1409.6385542168675,2.6373594119997694
205,1411.6465863453816,2.794408116019049
206,1413.6546184738957,2.1292142890899153
207,1415.6626506024097,2.3048102537663646
208,1417.6706827309238,2.2108960535404614
209,1419.6787148594378,2.363927059738748
210,1421.686746987952,2.144242675234188
211,1423.694779116466,2.079950908152754
212,1425.70281124498,1.95072055944406
213,1427.710843373494,2.0574792774163315
214,1429.7188755020081,1.4926453588860036
215,1431.7269076305222,1.824864472314165
216,1433.734939759036,1.356445439741688
217,1435.74297188755,1.595974125170748
218,1437.7510040160641,1.3395337968074645
219,1439.7590361445782,1.684459237118506
220,1441.7670682730923,1.351120737809332
221,1443.7751004016063,1.3898320777676834
222,1445.7831325301204,1.446974377018045
223,1447.7911646586344,0.9235342005823347
224,1449.7991967871485,0.9872863665151073
225,1451.8072289156626,0.8310992904375639
226,1453.8152610441766,0.8286044870274616
227,1455.8232931726907,1.167794868174127
228,1457.8313253012047,1.1691448697317048
229,1459.8393574297188,0.4549586598624056
230,1461.8473895582329,0.914881289020245
231,1463.855421686747,0.6898397681130852
232,1465.863453815261,0.6429380308088289
233,1467.871485943775,0.6183919297526883
234,1469.879518072289,0.5551723738987866
235,1471.8875502008032,0.9316100733099836
236,1473.8955823293172,0.7047163362345665
237,1475.9036144578313,0.7929170992307082
238,1477.9116465863453,0.8223116197858762
239,1479.9196787148594,0.8910991558374476
240,1481.9277108433735,0.6320592039083093
241,1483.9357429718875,0.8039421546196358
242,1485.9437751004016,0.5853881760569487
243,1487.9518072289156,0.7922503325094803
244,1489.9598393574297,0.39969464639370156
245,1491.9678714859438,0.5591395581558536
246,1493.9759036144578,0.3609506557803885
247,1495.9839357429719,0.6979147347063803
248,1497.991967871486,-0.15009638022461586
249,1500.0,0.35188766976661223
