,Raman shift [cm^-1],Intensity [a.u.]
0,1000.0,0.565224057699101
1,1002.0080321285141,0.12801697543395085
2,1004.0160642570281,0.10310187262769219
3,1006.0240963855422,0.4205058639742527
4,1008.0321285140562,0.36005409662968546
5,1010.0401606425703,0.2481661675985585
6,1012.0481927710844,0.32740314086923156
7,1014.0562248995984,0.7062400745193531
8,1016.0642570281125,0.5240364770303227
9,1018.0722891566265,0.43295701115155627
10,1020.0803212851406,0.07415433934147109
11,1022.0883534136547,0.14241641240566655
12,1024.0963855421687,0.7149774918166232
13,1026.1044176706828,0.5133071335302453
14,1028.1124497991968,0.40962757007027867
15,1030.120481927711,0.27680470570255833
16,1032.128514056225,0.49387263326222747
17,1034.136546184739,0.5213583886014154
18,1036.144578313253,0.5647717993198199
19,1038.1526104417671,0.14644348611708896
20,1040.1606425702812,0.8921840050497951
21,1042.1686746987953,0.7574603214347313
22,1044.1767068273093,0.4784871965160371
23,1046.1847389558234,0.4190850911768835
24,1048.1927710843374,0.6331327717846134
25,1050.2008032128515,0.08959367772184168
26,1052.2088353413656,0.6751552171171272
27,1054.2168674698796,0.39773067463994216
28,1056.2248995983937,0.27344525127712305
29,1058.2329317269077,0.807957625309353
30,1060.2409638554218,0.7096522453883586
31,1062.2489959839359,0.5979422694962279
32,1064.25702811245,0.5624673437900415
33,1066.265060240964,0.5475618062216346
34,1068.273092369478,0.9425429119062162
35,1070.2811244979919,0.6244878449153313
36,1072.289156626506,0.9757240941526861
37,1074.29718875502,0.8169056666887677
38,1076.305220883534,0.7794631062650054
39,1078.313253012048,1.142719697202935
40,1080.3212851405622,0.8621079321992253
41,1082.3293172690762,0.7164911840132008
42,1084.3373493975903,0.8491019971049868
43,1086.3453815261043,0.7761556543221643
44,1088.3534136546184,1.0902602138357693
45,1090.3614457831325,1.0995757221142328
46,1092.3694779116465,0.9287058503513922
47,1094.3775100401606,1.0435029978108488
48,1096.3855421686746,0.9581090133439975
49,1098.3935742971887,0.922094419505449
50,1100.4016064257028,1.5449455842957858
51,1102.4096385542168,0.7342815510494511
52,1104.4176706827309,0.9125741257255124
53,1106.425702811245,1.237977975979174
54,1108.433734939759,0.764796904365795
55,1110.441767068273,1.3696313591610951
56,1112.4497991967871,0.959167968346765
57,1114.4578313253012,1.062514043337134
58,1116.4658634538152,1.258691185148919
59,1118.4738955823293,1.314077460041761
60,1120.4819277108434,0.9800329565531296
61,1122.4899598393574,1.301817664901895
62,1124.4979919678715,1.1703189336797342
63,1126.5060240963855,1.1591499057502126
64,1128.5140562248996,1.2303132289499321
65,1130.5220883534137,1.1740387664237841
66,1132.5301204819277,1.2643550902269896
67,1134.5381526104418,1.3824944829012369
68,1136.5461847389558,1.1253695118506448
69,1138.55421686747,1.3520507505307242
70,1140.562248995984,1.4945459208761909
71,1142.570281124498,1.5112137351587476
72,1144.578313253012,1.7783579662494495
73,1146.5863453815261,1.7991753876569803
74,1148.5943775100402,1.502332994559431
75,1150.6024096385543,1.3699356520388373
76,1152.6104417670683,1.7062344567907477
77,1154.6184738955824,1.2694220454550862
78,1156.6265060240964,1.3995966125020607
79,1158.6345381526105,2.0867105744370504
80,1160.6425702811246,1.2530709022096973
81,1162.6506024096386,1.9714049487818746
82,1164.6586345381527,1.7643671219836956
83,1166.6666666666667,1.9696206233644926
84,1168.6746987951808,1.9335298283308078
85,1170.6827309236949,2.0773038906169212
86,1172.690763052209,1.5573723375696207
87,1174.698795180723,2.091468010574244
88,1176.706827309237,1.9366682845028296
89,1178.714859437751,2.2913891298733926
90,1180.7228915662652,2.152561534081466
91,1182.7309236947792,2.521385876432841
92,1184.738955823293,2.1893035989808864
93,1186.7469879518071,2.4010108019265948
94,1188.7550200803212,2.1151751746108833
95,1190.7630522088352,2.714819318887259
96,1192.7710843373493,2.1613565179556637
97,1194.7791164658634,2.260691397537556
98,1196.7871485943774,2.2394332227949056
99,1198.7951807228915,2.175500934353802
100,1200.8032128514055,2.2770856313236396
101,1202.8112449799196,2.3315182591355867
102,1204.8192771084337,2.5090475273290136
103,1206.8273092369477,1.9516818931616344
104,1208.8353413654618,2.2303678024034883
105,1210.8433734939758,2.1128612434885063
106,1212.85140562249,1.766631493180229
107,1214.859437751004,2.3401022029264826
108,1216.867469879518,2.311148024588856
109,1218.875502008032,2.198210090069962
110,1220.8835341365461,2.0125510345513837
111,1222.8915662650602,2.1163366401428605
112,1224.8995983935743,2.036353678812169
113,1226.9076305220883,2.103518923784719
114,1228.9156626506024,2.023637211784965
115,1230.9236947791164,2.0499605346667313
116,1232.9317269076305,1.922863146959573
117,1234.9397590361446,1.9809664144429815
118,1236.9477911646586,1.5404998949251114
119,1238.9558232931727,1.5042317687427764
120,1240.9638554216867,2.0774374787667194
121,1242.9718875502008,1.9399065762620455
122,1244.9799196787149,1.8201057140534065
123,1246.987951807229,1.7105175741279113
124,1248.995983935743,1.6914927368464792
125,1251.004016064257,1.518328903931541
126,1253.012048192771,1.2099841458568124
127,1255.0200803212851,1.4579786993050867
128,1257.0281124497992,1.68222495080349
129,1259.0361445783133,1.3639964819623893
130,1261.0441767068273,1.5766011137637814
131,1263.0522088353414,1.61728742596711
132,1265.0602409638554,1.2025041162684156
133,1267.0682730923695,1.6150422531332869
134,1269.0763052208836,1.645852034837535
135,1271.0843373493976,1.5852428513103023
136,1273.0923694779117,1.6624479859537002
137,1275.1004016064257,1.2754102537889918
138,1277.1084337349398,1.1937982432965806
139,1279.1164658634539,0.973849658686315
140,1281.124497991968,1.68709584988894
141,1283.132530120482,0.9525214615239698
142,1285.140562248996,1.6096731577408465
143,1287.14859437751,1.2764495979542487
144,1289.1566265060242,1.5332992022085303
145,1291.1646586345382,1.0980137389900126
146,1293.1726907630523,0.974852971630112
147,1295.1807228915663,1.068972978800434
148,1297.1887550200804,1.1183259996973134
149,1299.1967871485945,1.3431197820285836
150,1301.2048192771085,1.3557089513597698
151,1303.2128514056226,0.9025205901478228
152,1305.2208835341366,1.150379674041289
153,1307.2289156626507,0.7797754022950343
154,1309.2369477911648,1.2916397336602081
155,1311.2449799196788,1.0393047355335465
156,1313.2530120481929,1.0018744935467423
157,1315.261044176707,0.9004311338651387
158,1317.269076305221,1.0365626265711816
159,1319.277108433735,1.3375313777099291
160,1321.2851405622491,0.735219055060696
161,1323.2931726907632,1.0032492659596959
162,1325.3012048192772,1.3525041701160578
163,1327.3092369477913,0.9152986448192251
164,1329.3172690763054,1.0791028203750297
165,1331.3253012048194,1.103636697732025
166,1333.3333333333335,1.335009315125973
167,1335.3413654618475,1.1632303722993778
168,1337.3493975903616,1.030217851494006
169,1339.3574297188754,1.5697873401608662
170,1341.3654618473895,1.3527500465301652
171,1343.3734939759036,1.2107673707921545
172,1345.3815261044176,1.2907569591629555
173,1347.3895582329317,1.475070699174462
174,1349.3975903614457,1.6007565269206214
175,1351.4056224899598,1.4518241771922435
176,1353.4136546184739,1.3626591031621242
177,1355.421686746988,2.003064669421414
178,1357.429718875502,1.4459641094383833
179,1359.437751004016,1.5233594293137482
180,1361.44578313253,1.6690313782222859
181,1363.4538152610442,1.923272387370245
182,1365.4618473895582,1.543242417460124
183,1367.4698795180723,1.9104067440305903
184,1369.4779116465863,1.9442896071501656
185,1371.4859437751004,2.1575755414083306
186,1373.4939759036145,2.3565380363582906
187,1375.5020080321285,2.2134181019392605
188,1377.5100401606426,2.171273719828238
189,1379.5180722891566,2.023684032425485
190,1381.5261044176707,2.529942897354073
191,1383.5341365461848,2.2983643179243787
192,1385.5421686746988,2.4792393386769778
193,1387.5502008032129,2.6960971572589894
194,1389.558232931727,2.641165591804032
195,1391.566265060241,2.86762210623538
196,1393.574297188755,2.3074339067386034
197,1395.5823293172691,3.041227930845023
198,1397.5903614457832,2.632280598866916
199,1399.5983935742972,2.875884383278877
200,1401.6064257028113,2.7790797636038085
201,1403.6144578313254,2.7210635377458696
202,1405.6224899598394,2.666775961603705
203,1407.6305220883535,2.450439782848436
204,1409.6385542168675,2.7209657399211085
205,1411.6465863453816,2.583922790917699
206,1413.6546184738957,2.137207772028383
207,1415.6626506024097,2.340040410203763
208,1417.6706827309238,2.4361798999005613
209,1419.6787148594378,2.5340414450731474
210,1421.686746987952,2.15359530509369
211,1423.694779116466,1.8618134816586376
212,1425.70281124498,1.8751608958020485
213,1427.710843373494,2.0750470542509585
214,1429.7188755020081,2.079076516826534
215,1431.7269076305222,1.7770989922652893
216,1433.734939759036,1.834855850296072
217,1435.74297188755,1.7000118119341485
218,1437.7510040160641,1.698000332064065
219,1439.7590361445782,1.7239585101624288
220,1441.7670682730923,1.6248129845406332
221,1443.7751004016063,1.222638205925284
222,1445.7831325301204,0.9354261242875436
223,1447.7911646586344,0.7214096768520432
224,1449.7991967871485,1.0128359655111037
225,1451.8072289156626,1.290676817453183
226,1453.8152610441766,0.7792063308241206
227,1455.8232931726907,0.8715654164608182
228,1457.8313253012047,1.3510449504853597
229,1459.8393574297188,0.7272554601109172
230,1461.8473895582329,1.0115794028239853
231,1463.855421686747,1.280918999351544
232,1465.863453815261,0.6556238745280569
233,1467.871485943775,1.0476726456322396
234,1469.879518072289,0.6518321687444324
235,1471.8875502008032,0.7310237690088296
236,1473.8955823293172,0.6116841643888377
237,1475.9036144578313,0.8698825265883299
238,1477.9116465863453,0.6203664569549435
239,1479.9196787148594,0.7314863285993282
240,1481.9277108433735,0.6073957034492989
241,1483.9357429718875,0.3907185292660146
242,1485.9437751004016,0.8815874523689433
243,1487.9518072289156,0.2756825256310342
244,1489.9598393574297,0.2789264289040445
245,1491.9678714859438,0.25687630507321857
246,1493.9759036144578,0.21350521506139508
247,1495.9839357429719,0.38340451113383334
248,1497.991967871486,0.6843168153600693
249,1500.0,0.43652312133781035
