,Raman shift [cm^-1],Intensity [a.u.]
0,1000.0,0.42698873057148895
1,1002.0080321285141,0.21662903641090034
2,1004.0160642570281,0.20566771674663895
3,1006.0240963855422,0.42623892677988107
4,1008.0321285140562,0.4083229288411526
5,1010.0401606425703,0.7594988918427374
6,1012.0481927710844,0.5014493023775373
7,1014.0562248995984,0.37313979174323075
8,1016.0642570281125,0.2997629618551725
9,1018.0722891566265,0.5915963679968644
10,1020.0803212851406,0.20867460668053722
11,1022.0883534136547,0.28041002696696815
12,1024.0963855421687,0.4392528889424416
13,1026.1044176706828,0.44602602694107535
14,1028.1124497991968,0.594201190375933
15,1030.120481927711,0.44663640076345107
16,1032.128514056225,0.39359079436391636
17,1034.136546184739,1.0234596665854663
18,1036.144578313253,1.1628197631486439
19,1038.1526104417671,0.7529347808231174
20,1040.1606425702812,0.6356442398613646
21,1042.1686746987953,0.3545645402750665
22,1044.1767068273093,0.3752678929236676
23,1046.1847389558234,0.47660367757553795
24,1048.1927710843374,0.7590328518908215
25,1050.2008032128515,1.0325376752067394
26,1052.2088353413656,0.8197281761064974
27,1054.2168674698796,0.45905235659051274
28,1056.2248995983937,0.7059989774510204
29,1058.2329317269077,0.7304264278387832
30,1060.2409638554218,1.02589363590878
31,1062.2489959839359,1.0481185923578296
32,1064.25702811245,0.9014243858892835
33,1066.265060240964,1.0321158136037483
34,1068.273092369478,0.7035590547767104
35,1070.2811244979919,0.7287849442068962
36,1072.289156626506,0.8369932018917715
37,1074.29718875502,0.8737379306193986
38,1076.305220883534,1.0935598779871483
39,1078.313253012048,0.7230727975817394
40,1080.3212851405622,0.8468787476656687
41,1082.3293172690762,1.0126494879112715
42,1084.3373493975903,1.0619758159223371
43,1086.3453815261043,0.8003141258697618
44,1088.3534136546184,0.7103726126710512
45,1090.3614457831325,0.7014156970000455
46,1092.3694779116465,1.4844713741697875
47,1094.3775100401606,1.437907068022291
48,1096.3855421686746,1.1251361809215297
49,1098.3935742971887,1.4108477546244809
50,1100.4016064257028,0.9475402594572008
51,1102.4096385542168,1.3120033017389532
52,1104.4176706827309,1.1168734906764601
53,1106.425702811245,0.9103715190957914
54,1108.433734939759,1.3945602750002226
55,1110.441767068273,1.125869026120945
56,1112.4497991967871,1.3947062664482879
57,1114.4578313253012,1.585976945145094
58,1116.4658634538152,1.3389774647681334
59,1118.4738955823293,1.4398542574251627
60,1120.4819277108434,1.3890859471502925
61,1122.4899598393574,1.2580373958661724
62,1124.4979919678715,1.4266533891706064
63,1126.5060240963855,1.5358385872308749
64,1128.5140562248996,1.3819761150297845
65,1130.5220883534137,1.4150094309209338
66,1132.5301204819277,1.4629162561928444
67,1134.5381526104418,1.4362673114371531
68,1136.5461847389558,1.546301390452217
69,1138.55421686747,1.5833934332094914
70,1140.562248995984,1.6210699475109511
71,1142.570281124498,1.5646118748047784
72,1144.578313253012,1.780858764024468
73,1146.5863453815261,1.7418801602916736
74,1148.5943775100402,1.3606299174408034
75,1150.6024096385543,1.6437869100318752
76,1152.6104417670683,2.0349505288769723
77,1154.6184738955824,1.7720794423063633
78,1156.6265060240964,1.944306555280524
79,1158.6345381526105,1.8330065944508815
80,1160.6425702811246,1.9046478490720897
81,1162.6506024096386,1.8250533673765235
82,1164.6586345381527,1.7567325349808276
83,1166.6666666666667,2.3311669806226276
84,1168.6746987951808,2.2880672480402997
85,1170.6827309236949,2.258789233820518
86,1172.690763052209,2.23875113640548
87,1174.698795180723,1.5619406168577756
88,1176.706827309237,2.0680819808610704
89,1178.714859437751,2.4062510909035706
90,1180.7228915662652,2.4993862925986483
91,1182.7309236947792,2.623386959810861
92,1184.738955823293,2.864108954313638
93,1186.7469879518071,2.50893102791291
94,1188.7550200803212,2.4800119462885712
95,1190.7630522088352,2.502707176275584
96,1192.7710843373493,2.3094191589168354
97,1194.7791164658634,2.15554822798474
98,1196.7871485943774,2.441658297046813
99,1198.7951807228915,2.3864540910048992
100,1200.8032128514055,2.3480466947093226
101,1202.8112449799196,2.3854158309457403
102,1204.8192771084337,2.144246134240249
103,1206.8273092369477,2.453352677957222
104,1208.8353413654618,2.4024976313069306
105,1210.8433734939758,2.3129740745094445
106,1212.85140562249,2.3902949216013387
107,1214.859437751004,2.208256877416234
108,1216.867469879518,2.478358959592432
109,1218.875502008032,2.30260586155634
110,1220.8835341365461,2.262255427552568
111,1222.8915662650602,2.4043509996096453
112,1224.8995983935743,2.041724322530335
113,1226.9076305220883,2.0454652327420786
114,1228.9156626506024,2.2018935287772377
115,1230.9236947791164,2.203931741127754
116,1232.9317269076305,2.443219536576015
117,1234.9397590361446,1.7576591621709599
118,1236.9477911646586,2.0685123958811094
119,1238.9558232931727,1.8513182052055785
120,1240.9638554216867,1.4998502858221536
121,1242.9718875502008,1.8783583663683685
122,1244.9799196787149,1.5695172578464684
123,1246.987951807229,1.7009434073592273
124,1248.995983935743,1.5803153584402998
125,1251.004016064257,1.388458989046656
126,1253.012048192771,1.1893759036643459
127,1255.0200803212851,1.7575348194630396
128,1257.0281124497992,1.6120632230383298
129,1259.0361445783133,1.7082995166703892
130,1261.0441767068273,1.4738003876081962
131,1263.0522088353414,1.7093708441202888
132,1265.0602409638554,1.6198005357607654
133,1267.0682730923695,1.3536519023445854
134,1269.0763052208836,1.4057917655142682
135,1271.0843373493976,1.6845170917371155
136,1273.0923694779117,1.2706323695017312
137,1275.1004016064257,1.1975051058302861
138,1277.1084337349398,1.1643539736901096
139,1279.1164658634539,1.4027889260593793
140,1281.124497991968,1.3089451830821635
141,1283.132530120482,1.1633603012597051
142,1285.140562248996,1.4122843041117186
143,1287.14859437751,1.4092005086337942
144,1289.1566265060242,1.0108062987085458
145,1291.1646586345382,1.45100559656391
146,1293.1726907630523,1.4242013594579055
147,1295.1807228915663,1.4421607623802426
148,1297.1887550200804,0.7930101024072164
149,1299.1967871485945,1.3258198708928277
150,1301.2048192771085,1.4568491866518665
151,1303.2128514056226,0.7977799838929838
152,1305.2208835341366,0.7701058357524568
153,1307.2289156626507,0.8089033107501854
154,1309.2369477911648,1.0895001323561024
155,1311.2449799196788,1.2711641386989418
156,1313.2530120481929,1.191364952143553
157,1315.261044176707,1.3420209569080142
158,1317.269076305221,0.9822864861713176
159,1319.277108433735,1.1921441562695325
160,1321.2851405622491,1.1791030722885982
161,1323.2931726907632,1.0470471826928691
162,1325.3012048192772,1.4934302011264784
163,1327.3092369477913,1.1036974881183754
164,1329.3172690763054,1.0345165091011
165,1331.3253012048194,1.1303874288903641
166,1333.3333333333335,1.3645553223916436
167,1335.3413654618475,1.2863100098104736
168,1337.3493975903616,1.4468656010357743
169,1339.3574297188754,1.4945916898032319
170,1341.3654618473895,1.4749329601004229
171,1343.3734939759036,1.0923935776681322
172,1345.3815261044176,1.4594379613026875
173,1347.3895582329317,1.2978561025818982
174,1349.3975903614457,1.646811294510131
175,1351.4056224899598,1.5403068091041028
176,1353.4136546184739,1.5679296950781159
177,1355.421686746988,1.842492570287098
178,1357.429718875502,1.3951585252838106
179,1359.437751004016,2.1553458713290583
180,1361.44578313253,1.8506763373929107
181,1363.4538152610442,1.9205319885175802
182,1365.4618473895582,1.7641852700468599
183,1367.4698795180723,1.9729028180923078
184,1369.4779116465863,1.878679738328693
185,1371.4859437751004,1.8092163030510733
186,1373.4939759036145,2.366484996076766
187,1375.5020080321285,1.9145533182346015
188,1377.5100401606426,2.338726381259023
189,1379.5180722891566,2.3826081869333464
190,1381.5261044176707,2.4034568714703446
191,1383.5341365461848,1.8912023522593642
192,1385.5421686746988,2.5107343374096556
193,1387.5502008032129,2.5898944797410155
194,1389.558232931727,2.200192275445417
195,1391.566265060241,2.78357875584946
196,1393.574297188755,2.784096904782986
197,1395.5823293172691,2.6602280777220813
198,1397.5903614457832,2.5711976030349972
199,1399.5983935742972,2.6528727670795855
200,1401.6064257028113,2.4103504777407414
201,1403.6144578313254,2.4789340547655168
202,1405.6224899598394,2.4830685824385297
203,1407.6305220883535,2.3836658036472476
204,1409.6385542168675,2.5734131146609576
205,1411.6465863453816,2.2426792463408063
206,1413.6546184738957,2.247111830782947
207,1415.6626506024097,2.363260559707609
208,1417.6706827309238,2.236307339628297
209,1419.6787148594378,2.013523104231891
210,1421.686746987952,2.107500169415303
211,1423.694779116466,2.137011766990745
212,1425.70281124498,2.2533168045735863
213,1427.710843373494,1.6690097093769534
214,1429.7188755020081,1.975438950217183
215,1431.7269076305222,1.8423363785926181
216,1433.734939759036,1.2902259302921613
217,1435.74297188755,1.7241903427826877
218,1437.7510040160641,1.8645250534431999
219,1439.7590361445782,1.4702391520535627
220,1441.7670682730923,1.3190423375851956
221,1443.7751004016063,1.245022636843425
222,1445.7831325301204,1.3178653681026238
223,1447.7911646586344,1.5212883796933268
224,1449.7991967871485,1.1715234382269073
225,1451.8072289156626,1.0652830736071643
226,1453.8152610441766,1.0191849423830552
227,1455.8232931726907,0.890899420511041
228,1457.8313253012047,1.2345792366480082
229,1459.8393574297188,1.3023596140315339
230,1461.8473895582329,0.8675432591918649
231,1463.855421686747,0.8851158550783236
232,1465.863453815261,0.7075772216418166
233,1467.871485943775,0.7748600508654846
234,1469.879518072289,0.751344622644933
235,1471.8875502008032,0.7340164681199401
236,1473.8955823293172,0.836755045698107
237,1475.9036144578313,0.3668743466908566
238,1477.9116465863453,0.7256616051403868
239,1479.9196787148594,0.5152495311377155
240,1481.9277108433735,0.5858920837006816
241,1483.9357429718875,0.703367103694343
242,1485.9437751004016,0.6557027637541515
243,1487.9518072289156,0.6410648840712578
244,1489.9598393574297,0.31216252768015196
245,1491.9678714859438,0.7502737202364802
246,1493.9759036144578,0.3826259366800476
247,1495.9839357429719,0.43689272788181444
248,1497.991967871486,0.6869005041940909
249,1500.0,0.47931757245641776
