,Raman shift [cm^-1],Intensity [a.u.]
0,1000.0,0.1405130018612868
1,1002.0080321285141,0.3592811061898037
2,1004.0160642570281,0.15383652141742116
3,1006.0240963855422,0.4693313953717893
4,1008.0321285140562,0.22380575172739314
5,1010.0401606425703,0.3170345612427613
6,1012.0481927710844,0.4823815801212679
7,1014.0562248995984,0.5627750218953208
8,1016.0642570281125,0.15487185222126548
9,1018.0722891566265,0.08629501613877294
10,1020.0803212851406,0.4245405639315706
11,1022.0883534136547,0.16634462896527488
12,1024.0963855421687,0.1566801753871644
13,1026.1044176706828,0.287299722381257
14,1028.1124497991968,0.1655386520276474
15,1030.120481927711,0.02475687153716155
16,1032.128514056225,0.3661186293570526
17,1034.136546184739,0.5294711881189191
18,1036.144578313253,0.4153691332457215
19,1038.1526104417671,0.5292993465143772
20,1040.1606425702812,0.4235316121853223
21,1042.1686746987953,0.2711382267799479
22,1044.1767068273093,0.18867542318031683
23,1046.1847389558234,0.1522261152651332
24,1048.1927710843374,0.32290917545602116
25,1050.2008032128515,0.29822162608695046
26,1052.2088353413656,0.27601636225242365
27,1054.2168674698796,0.45049367667189916
28,1056.2248995983937,0.5188396490743495
29,1058.2329317269077,0.13578658615955919
30,1060.2409638554218,0.25217637852537045
31,1062.2489959839359,0.3608705586396131
32,1064.25702811245,0.6016126543392666
33,1066.265060240964,0.28689240771035535
34,1068.273092369478,0.3077817783776742
35,1070.2811244979919,0.37431867850955924
36,1072.289156626506,0.6026752002582003
37,1074.29718875502,0.5558957885781731
38,1076.305220883534,0.570523014128704
39,1078.313253012048,0.7000147034969197
40,1080.3212851405622,0.6033563643023506
41,1082.3293172690762,0.6082702130955204
42,1084.3373493975903,0.42898315758511146
43,1086.3453815261043,0.6015685414888969
44,1088.3534136546184,0.6560139803703682
45,1090.3614457831325,0.8905055501198178
46,1092.3694779116465,0.3923512995606834
47,1094.3775100401606,0.6252404208902849
48,1096.3855421686746,0.6029158497491403
49,1098.3935742971887,0.377021095053238
50,1100.4016064257028,0.6533817732409888
51,1102.4096385542168,0.7985392052910315
52,1104.4176706827309,0.974503633836528
53,1106.425702811245,0.7681048127599249
54,1108.433734939759,0.39245695761414656
55,1110.441767068273,0.7168804900267745
56,1112.4497991967871,0.8905182436359358
57,1114.4578313253012,0.5820272872367311
58,1116.4658634538152,0.7578481218478256
59,1118.4738955823293,0.7637667351070667
60,1120.4819277108434,0.632774608871453
61,1122.4899598393574,0.6785920312631301
62,1124.4979919678715,0.8483624717820487
63,1126.5060240963855,0.6596863110037041
64,1128.5140562248996,1.252706680711867
65,1130.5220883534137,0.7954920636296233
66,1132.5301204819277,0.8664862870457437
67,1134.5381526104418,1.383874062903151
68,1136.5461847389558,1.0496769405160677
69,1138.55421686747,1.0917616095453213
70,1140.562248995984,1.1865345405559886
71,1142.570281124498,0.9183896322185734
72,1144.578313253012,0.9997295707514833
73,1146.5863453815261,1.0616899009503933
74,1148.5943775100402,1.0505553441447166
75,1150.6024096385543,1.4128586885062733
76,1152.6104417670683,1.5839178661425655
77,1154.6184738955824,1.5748994002933396
78,1156.6265060240964,1.2575708823902856
79,1158.6345381526105,1.4247185007197773
80,1160.6425702811246,1.6394562617251753
81,1162.6506024096386,1.8347674048419353
82,1164.6586345381527,1.4241544677026756
83,1166.6666666666667,1.4014204863814834
84,1168.6746987951808,2.118165253771876
85,1170.6827309236949,1.5013786366427182
86,1172.690763052209,1.917802862152019
87,1174.698795180723,1.7176417766627181
88,1176.706827309237,2.043362951159953
89,1178.714859437751,1.680641263169257
90,1180.7228915662652,1.736507531335632
91,1182.7309236947792,1.8414531459561412
92,1184.738955823293,1.6371286650131838
93,1186.7469879518071,1.8463837055791004
94,1188.7550200803212,1.7636459714278523
95,1190.7630522088352,2.27532864319358
96,1192.7710843373493,2.082977996919699
97,1194.7791164658634,2.2969508524460385
98,1196.7871485943774,2.455075002489522
99,1198.7951807228915,2.406052910694382
100,1200.8032128514055,2.2363342906777532
101,1202.8112449799196,2.158501324783136
102,1204.8192771084337,2.384228137334068
103,1206.8273092369477,2.025193146938056
104,1208.8353413654618,2.196325411630112
105,1210.8433734939758,2.2502437301311415
106,1212.85140562249,2.064574322458869
107,1214.859437751004,2.042059232497918
108,1216.867469879518,1.9485437024339813
109,1218.875502008032,2.172532140323219
110,1220.8835341365461,1.86774947185498
111,1222.8915662650602,1.8925748688317563
112,1224.8995983935743,1.7164074468688955
113,1226.9076305220883,1.6927285027694516
114,1228.9156626506024,1.8828853989204062
115,1230.9236947791164,1.8769761389855297
116,1232.9317269076305,2.040289386617923
117,1234.9397590361446,1.5432440774656488
118,1236.9477911646586,1.6530563615483664
119,1238.9558232931727,1.90166014831299
120,1240.9638554216867,1.5647890923552363
121,1242.9718875502008,1.8388610042370777
122,1244.9799196787149,1.7306503091758338
123,1246.987951807229,1.4162790004005121
124,1248.995983935743,1.5466216529071921
125,1251.004016064257,1.3133576927560977
126,1253.012048192771,1.1571330551055556
127,1255.0200803212851,1.2908698346602212
128,1257.0281124497992,1.3035330645504046
129,1259.0361445783133,1.4440841708796917
130,1261.0441767068273,1.6564199710427672
131,1263.0522088353414,1.7365307270948496
132,1265.0602409638554,1.357981834990161
133,1267.0682730923695,1.4822237915379028
134,1269.0763052208836,1.503128292219821
135,1271.0843373493976,1.3076755971192795
136,1273.0923694779117,1.1837009354830228
137,1275.1004016064257,1.3434602852185156
138,1277.1084337349398,1.0728512149164613
139,1279.1164658634539,0.9765560210924799
140,1281.124497991968,1.1556831847244031
141,1283.132530120482,1.3837553540553835
142,1285.140562248996,1.111950665374972
143,1287.14859437751,1.185985679781811
144,1289.1566265060242,0.7387769531778843
145,1291.1646586345382,1.0357126584404757
146,1293.1726907630523,1.278453921442067
147,1295.1807228915663,1.1598410608083978
148,1297.1887550200804,1.1246146445674445
149,1299.1967871485945,0.6342137941279798
150,1301.2048192771085,0.6357535323704724
151,1303.2128514056226,1.1214060516452562
152,1305.2208835341366,0.9233994020218006
153,1307.2289156626507,0.9420507919668272
154,1309.2369477911648,1.0665370421249534
155,1311.2449799196788,0.7291908938579612
156,1313.2530120481929,1.0805110257000192
157,1315.261044176707,1.0059502763080646
158,1317.269076305221,1.1560147369204867
159,1319.277108433735,1.3176540608237681
160,1321.2851405622491,1.088802727839674
161,1323.2931726907632,1.2970051533615912
162,1325.3012048192772,0.6890063300472062
163,1327.3092369477913,1.2277179261704183
164,1329.3172690763054,1.1638190244221065
165,1331.3253012048194,1.2400078299424029
166,1333.3333333333335,1.125199128359585
167,1335.3413654618475,1.1543965523818804
168,1337.3493975903616,1.3247285752218811
169,1339.3574297188754,1.141193170679693
170,1341.3654618473895,1.3803493409993286
171,1343.3734939759036,1.3714723436017686
172,1345.3815261044176,1.2241688139372804
173,1347.3895582329317,1.305359696116573
174,1349.3975903614457,1.4088116666821608
175,1351.4056224899598,1.4180749899109064
176,1353.4136546184739,1.222901225120401
177,1355.421686746988,1.564878993193227
178,1357.429718875502,1.8128345104017298
179,1359.437751004016,1.6044398539144078
180,1361.44578313253,1.8957841503610868
181,1363.4538152610442,1.6363412886090483
182,1365.4618473895582,1.525237576315144
183,1367.4698795180723,1.8664504019470298
184,1369.4779116465863,1.976671681596126
185,1371.4859437751004,1.6347166668587303
186,1373.4939759036145,2.1923358023625896
187,1375.5020080321285,1.9379865939022118
188,1377.5100401606426,2.3149888274462413
189,1379.5180722891566,1.8884268040005465
190,1381.5261044176707,2.283644601466349
191,1383.5341365461848,2.2983326993377413
192,1385.5421686746988,2.2329643570985103
193,1387.5502008032129,2.548163408056356
194,1389.558232931727,2.3840798251947297
195,1391.566265060241,2.2965454648910173
196,1393.574297188755,2.2242266847285244
197,1395.5823293172691,2.604501910522228
198,1397.5903614457832,2.698129529145838
199,1399.5983935742972,2.4132992213076614
200,1401.6064257028113,2.8264730766806054
201,1403.6144578313254,2.6472106282831347
202,1405.6224899598394,2.2781216154765658
203,1407.6305220883535,2.3334855437551276
204,1409.6385542168675,2.4551821232692568
205,1411.6465863453816,2.5038273794165207
206,1413.6546184738957,2.413836454136113
207,1415.6626506024097,2.1296065238184685
208,1417.6706827309238,2.180427472890578
209,1419.6787148594378,1.9811403482735659
210,1421.686746987952,2.0370988505010534
211,1423.694779116466,2.070073789066356
212,1425.70281124498,2.137418517475238
213,1427.710843373494,2.086017497846555
214,1429.7188755020081,1.6306115594374644
215,1431.7269076305222,1.4763177487040873
216,1433.734939759036,1.797823585343167
217,1435.74297188755,1.8573150737970257
218,1437.7510040160641,1.315301741679588
219,1439.7590361445782,1.4709202844822817
220,1441.7670682730923,1.2207132536167722
221,1443.7751004016063,0.910943062486042
222,1445.7831325301204,0.8457376147381386
223,1447.7911646586344,1.3188462500973135
224,1449.7991967871485,0.8547421171987273
225,1451.8072289156626,1.1236152861686313
226,1453.8152610441766,0.9923040748951932
227,1455.8232931726907,1.0082625203296087
228,1457.8313253012047,0.7474735121956934
229,1459.8393574297188,1.030425284821761
230,1461.8473895582329,0.9708938336655242
231,1463.855421686747,0.8871400410221415
232,1465.863453815261,0.7105831192865194
233,1467.871485943775,0.9077420620080227
234,1469.879518072289,0.7664877195217871
235,1471.8875502008032,0.5837768939141013
236,1473.8955823293172,0.5681598401946127
237,1475.9036144578313,0.46995404861037715
238,1477.9116465863453,0.6498546295731534
239,1479.9196787148594,0.6173878865507686
240,1481.9277108433735,0.6269923125735549
241,1483.9357429718875,0.3544504469595119
242,1485.9437751004016,0.7904165944425827
243,1487.9518072289156,0.45045148760620213
244,1489.9598393574297,0.9167919449490897
245,1491.9678714859438,0.48584390766426183
246,1493.9759036144578,0.953373808885788
247,1495.9839357429719,0.41870136937834784
248,1497.991967871486,0.7614055566888381
249,1500.0,0.21630038509298088
